start[seconds]	end[kBq/cc]	FL_mid_fr_G_l	FL_mid_fr_G_r	FL_precen_G_l	FL_precen_G_r	FL_strai_G_l	FL_strai_G_r	FL_OFC_AOG_l	FL_OFC_AOG_r	FL_inf_fr_G_l	FL_inf_fr_G_r	FL_sup_fr_G_l	FL_sup_fr_G_r	FL_OFC_MOG_l	FL_OFC_MOG_r	FL_OFC_LOG_l	FL_OFC_LOG_r	FL_OFC_POG_l	FL_OFC_POG_r	Subgen_antCing_l	Subgen_antCing_r	Subcall_area_l	Subcall_area_r	Presubgen_antCing_l	Presubgen_antCing_r	Hippocampus_r	Hippocampus_l	Amygdala_r	Amygdala_l	Ant_TL_med_r	Ant_TL_med_l	Ant_TL_inf_lat_r	Ant_TL_inf_lat_l	G_paraH_amb_r	G_paraH_amb_l	G_sup_temp_post_r	G_sup_temp_post_l	G_tem_midin_r	G_tem_midin_l	G_fus_r	G_fus_l	Post_TL_l	Post_TL_r	G_sup_temp_ant_l	G_sup_temp_ant_r	PL_postce_G_l	PL_postce_G_r	PL_sup_pa_G_l	PL_sup_pa_G_r	PL_rest_l	PL_rest_r	OL_rest_lat_l	OL_rest_lat_r	OL_ling_G_l	OL_ling_G_r	OL_cuneus_l	OL_cuneus_r	CaudateNucl_l	CaudateNucl_r	NuclAccumb_l	NuclAccumb_r	Putamen_l	Putamen_r	Thalamus_l	Thalamus_r	Pallidum_l	Pallidum_r	Corp_Callosum	S_nigra_l	S_nigra_r	Insula_l	Insula_r	G_cing_ant_l	G_cing_ant_r	G_cing_post_l	G_cing_post_r	Cerebellum_r	Cerebellum_l	Brainstem	FrontalHorn_r	FrontalHorn_l	TemporaHorn_r	TemporaHorn_l	ThirdVentricl	White_matter_l	White_matter_r	CBW	FL_mid_fr_G_l_C	FL_mid_fr_G_r_C	FL_precen_G_l_C	FL_precen_G_r_C	FL_strai_G_l_C	FL_strai_G_r_C	FL_OFC_AOG_l_C	FL_OFC_AOG_r_C	FL_inf_fr_G_l_C	FL_inf_fr_G_r_C	FL_sup_fr_G_l_C	FL_sup_fr_G_r_C	FL_OFC_MOG_l_C	FL_OFC_MOG_r_C	FL_OFC_LOG_l_C	FL_OFC_LOG_r_C	FL_OFC_POG_l_C	FL_OFC_POG_r_C	Subgen_antCing_l_C	Subgen_antCing_r_C	Subcall_area_l_C	Subcall_area_r_C	Presubgen_antCing_l_C	Presubgen_antCing_r_C	Hippocampus_r_C	Hippocampus_l_C	Amygdala_r_C	Amygdala_l_C	Ant_TL_med_r_C	Ant_TL_med_l_C	Ant_TL_inf_lat_r_C	Ant_TL_inf_lat_l_C	G_paraH_amb_r_C	G_paraH_amb_l_C	G_sup_temp_post_r_C	G_sup_temp_post_l_C	G_tem_midin_r_C	G_tem_midin_l_C	G_fus_r_C	G_fus_l_C	Post_TL_l_C	Post_TL_r_C	G_sup_temp_ant_l_C	G_sup_temp_ant_r_C	PL_postce_G_l_C	PL_postce_G_r_C	PL_sup_pa_G_l_C	PL_sup_pa_G_r_C	PL_rest_l_C	PL_rest_r_C	OL_rest_lat_l_C	OL_rest_lat_r_C	OL_ling_G_l_C	OL_ling_G_r_C	OL_cuneus_l_C	OL_cuneus_r_C	CaudateNucl_l_C	CaudateNucl_r_C	NuclAccumb_l_C	NuclAccumb_r_C	Putamen_l_C	Putamen_r_C	Thalamus_l_C	Thalamus_r_C	Pallidum_l_C	Pallidum_r_C	Corp_Callosum_C	S_nigra_l_C	S_nigra_r_C	Insula_l_C	Insula_r_C	G_cing_ant_l_C	G_cing_ant_r_C	G_cing_post_l_C	G_cing_post_r_C	Cerebellum_r_C	Cerebellum_l_C	Brainstem_C	FrontalHorn_r_C	FrontalHorn_l_C	TemporaHorn_r_C	TemporaHorn_l_C	ThirdVentricl_C	White_matter_l_C	White_matter_r_C	CBW_C	
0.0	15.0	0.051569343014320285	0.08305440436593503	-0.05035268237791722	0.03980314422819146	0.14820927434733935	0.12082659511591544	0.06286167911265192	-0.039755871703495524	0.09429900373110614	0.03423211966157075	0.03385965657235822	0.010801376396513372	-0.006162854104567165	0.12413571691057648	-0.2245100922667248	0.18420163498502487	0.12322734672173703	0.1666126232320734	-0.19556774826859738	0.398760509064287	0.6462514952168261	0.22181092607123512	-0.27830051164185443	0.15748602053937838	0.22708352979393664	0.003672385090751396	0.11916230934294378	0.23382058335492054	0.009386545781718374	0.23752921896252832	0.04682471535035394	-0.030357011217939774	0.18184465915756373	0.13367732937386573	0.14388612411323812	0.10676479294856663	0.007811422432742893	-0.01996016298390576	0.1253329661523042	0.13431220274222525	0.018247126501052324	0.020308205602267527	0.19076812927743494	0.03486396605691323	0.11416552925558808	0.06298221671991132	-0.007029709387523698	0.06308434192096442	0.04481254998475821	0.10705291443290783	0.019391468634304607	0.005284421458037736	0.028497620549524736	0.044902808755707554	0.033881697341242904	-0.01729013540514608	-0.04742461289983467	-0.05767879769638212	0.17008270874547843	0.49498302301353947	0.050997211793196495	-0.021041111651406718	-0.1140211781522779	0.10313986408665868	0.12208163128995243	0.31882777422270625	0.03920341245147505	-0.09768589351326228	-0.352637136913836	0.042706716082781496	0.18418238178715893	0.261917946859571	0.30008770960531284	-0.04796435915934047	0.045752276041087406	-0.014088792121788894	0.058258287669731235	0.10057324779958786	0.135762596163986	-0.13942671753038133	0.18446353586450978	0.2782028992719288	2.010320532041908E-4	0.011443027595503266	0.03096895560194652	-0.010703420178101416	0.06821683421601836	0.10924951730479564	-0.06765427577103907	0.06587041845382569	0.1809780018667814	0.17474680298939346	0.07585346550356759	-0.046069646965226405	0.1207951428225711	0.037605080522114545	0.02722568310247059	-6.774079732646528E-4	0.0046996879535566045	0.19204967210615867	-0.28245444234694084	0.24291368674189176	0.1506225293678799	0.22440686137199886	-0.3040360850719773	0.5753101000855504	0.8636220345894495	0.25791277702559123	-0.3775708410564972	0.18133540155105693	0.24388337570611796	0.008128147206086477	0.12998869306566932	0.24473089644215607	0.01697088539607937	0.2944115522327555	0.07309365550401553	-0.033688306107513326	0.22899115025484934	0.16434705925733387	0.20099507422033863	0.1520909932507504	0.014986844796767611	-0.031618914408971716	0.14733002305671683	0.18446524170005604	0.019517570488817283	0.033065715129290865	0.23558581418827268	0.05887352199687908	0.16305007439270722	0.05921950490267472	-0.023905520886500962	0.07609423968182005	0.0594867534966015	0.15117014995445416	0.022351062158028543	0.009490403174695548	0.03746633492279266	0.06287007196707585	0.04373128906715797	-0.022960841638162113	0.06976881059192455	-0.033890120197174044	0.18037110570003279	0.5179569298135382	0.0764265984174239	0.05776224820352121	-0.13098192866236305	0.11891205660306299	0.32365311031333277	0.1985346752529343	-0.08983942070925557	-0.04054680746048689	-1.0711341814862356	0.04589406708908611	0.22551508361472045	0.31829228576080276	0.3664299645478648	-0.056567330176319805	0.07068038530756705	-0.01058536738749892	0.06473603924416094	-0.07312468712426261	-0.3041186172515154	0.02582879662513733	0.24472672553086766	0.4549019916407895	NaN	0.0860332615259621	0.4990472814149183	-0.12704697275354015
15.0	30.0	5.762807701643863	5.978250873711422	6.159679123349095	5.942422703032638	8.75308459496737	8.345178137334821	4.9659528472605174	4.869925888358101	7.3136026776344485	7.320320040166425	5.563953755744122	5.758912136279427	6.057864023178738	6.245743996358226	5.800104809639861	5.653529896606486	7.465983236688467	8.878229883004192	8.725608388582865	7.526211933204622	6.497367184413107	9.615380925791603	8.09865828518194	8.106147567866389	5.745366871790425	9.224691529980017	6.404608537850704	8.469342958850739	5.202548862176118	5.985148170956915	4.386042965580183	4.691077197358185	6.239487589999078	7.299651365199633	7.752577521175329	7.95948518453087	5.598351264920304	4.926952287982006	4.115060509566684	4.759092146630415	6.090246129782163	5.4428689589312835	9.203357863150282	6.979799317321412	6.445939541683732	6.620747886241103	5.788240109118613	5.598284404113254	5.623786112487679	6.099792512355439	5.190308277507519	4.827296590440966	6.49429047196877	6.9552786587324364	6.554034657513885	5.934473403514222	3.3731218082707226	4.926887005462465	4.2072318957402155	6.284294532269848	6.708493136814079	5.8888840610125	5.878018658684702	5.937949680067905	5.586586711114472	5.516908412556285	3.171188699039565	5.2187162780761716	5.753653132799082	6.760321057985788	8.077567010813297	7.854566806915358	7.035465863480402	7.014068774071896	6.999009034386551	5.435887722401418	5.615724283417279	4.986239641850467	1.7548878410225734	1.664131493218987	3.6006284240909197	7.657952995239934	3.556768178139757	3.9077599530875045	4.043552210290677	4.252407649896386	7.1340951864312245	7.483670309466312	8.188471081767483	7.953543658194872	11.09400666603841	10.708564172461628	6.003251724955828	6.0433086143304475	9.245843994097614	9.040156091839075	7.080212862316276	7.391953362636526	7.835741855014109	8.015718906051678	7.25199659461649	6.9796776484642455	8.948612593243405	10.558423710536832	10.979824680126896	9.482938258046353	8.214028004142973	11.006341137669303	9.330034490804309	10.142918853189355	6.478913093565119	9.973664313460453	6.642384869111057	8.82819135599168	6.242268497849474	7.108861766838636	5.400900658640198	5.443296783682653	7.225760155677795	8.715953159101662	10.385837452454371	10.034191427705185	6.96849412781784	5.9022401820959445	4.954582640823752	5.322195437206399	7.314773244540788	6.503950195233778	11.261478142513603	8.90261187544448	8.718568683179065	9.41140650626948	7.57170566584903	7.200276712051036	7.13057936833515	7.89318503872453	6.429289003499912	5.827973292481196	7.858402787508592	8.506100772252347	8.311555374844408	7.148358193954913	5.4789241718100525	7.200589943616117	4.2800526490900666	6.422179134524598	7.423467248055249	6.794833579491924	7.954385941592199	7.647167519932119	5.6885930534866125	6.165875918361255	10.2584684738839	6.121449362663996	8.903015603621801	8.00492464858526	9.504509483244927	9.393982057148115	8.460420937289047	8.464604992098117	8.512495870779201	6.138274410139008	6.284169461031934	7.305880607345582	4.22639986872673	0.25370651483535767	7.376710711693277	10.384642923087405	NaN	8.44015746574711	9.146094016358257	9.574244018523924
30.0	45.0	16.071376628740254	16.375655930709133	16.69802808298538	15.288036733645258	16.643975701248436	17.551837891798755	14.436549409906915	14.47055824212174	16.725262885431633	16.416598151317256	15.534194509037215	16.046941379146254	15.985294412491017	14.718664803551238	14.22674771953298	15.29582808647321	17.687228588186407	17.33149695476162	17.03344234155149	13.804932860714016	10.343071193287248	18.75700659070696	17.194870490154237	14.106494525044235	13.736513013297573	17.131363769372303	16.293838165322757	17.03749441081642	13.93017871216937	12.231346388250204	11.545637488811217	13.316153095407063	13.063011489048531	14.009579301257677	17.355191699022146	17.966360145524398	14.880603758361943	14.880550542106052	12.478133357076773	12.079737527005623	15.902543886961487	15.120810033160504	16.44844172682081	13.13841027872903	15.928711737246731	15.721318693421404	16.31766561134708	15.870452608627724	14.959632312561974	14.288542711071349	15.478979981102446	14.48755072019117	18.741561607139786	18.877582431493735	18.838691000147175	18.080964160575387	9.010801741598986	11.43501631721686	14.386089706420899	17.12406452334657	16.388129589782803	17.995704398627698	15.537395026872039	16.202528684728914	13.946009967946312	16.321659364562105	7.79951308590299	12.072608218193054	10.176839184686541	16.337978690263515	16.80315161703903	15.537190048674189	15.77531500310129	18.710401639403948	16.71645048397958	15.933188408977024	16.96049030708417	13.091364358258799	4.993895361761873	5.12587381726786	9.670642415268553	14.878837552251696	11.65481086410332	11.163042081441814	11.606606672712928	13.068972727977762	19.78090201234901	20.4101857522738	21.73531593085829	19.918194664281046	21.010547272771237	21.995642640590667	17.533425040258013	18.247967456190484	21.000963227087865	19.93520899459294	19.528865678502843	20.51583737346365	20.266780435496123	18.59699815856904	17.58900017819853	18.877417044260014	20.967502091218904	20.324549397936575	21.012452220128587	16.767352616897337	12.16047626402643	21.266831629204027	20.03276720876279	16.7804762676198	15.433155454392004	18.465304291701013	17.03604869146158	17.969226911004665	16.63350664464847	14.475706045922252	14.327792915466585	15.813441259249792	14.977105176901818	16.3620221251056	22.528668596577727	22.262368167921256	18.41918855587699	17.74501651560717	14.884310544665793	13.61255520939827	18.829239276704463	17.956427062893848	19.910286515462595	16.2849466580016	21.091441137301203	21.193587997165913	21.340260980328562	20.47035259435035	18.7958138198815	18.237495606140026	18.973261748754712	17.403623334846337	22.749571443490915	22.855142464331173	24.102678007265418	21.823755699683353	12.775367734725796	16.275854400923993	14.632529765367508	17.50251803106191	18.579130338984587	20.96428324204587	20.27404875676487	19.62800749701758	17.579032775097424	16.750100294748943	20.49289250105351	13.757669556708564	13.051455101205242	18.988696360583887	19.396152737465773	18.062324787267386	18.835326549085906	22.35212651547996	20.151990968706766	18.052852038382785	18.927180748196577	17.38820503565417	16.999952650070192	12.741820526123046	16.531746450735596	19.309557814347116	NaN	23.9553177288285	22.485416934801183	24.798553051487094
45.0	60.0	19.117669217457884	19.470759341582564	18.52006408266207	18.299821529137308	18.968947543088056	20.202741197963338	17.145358026933526	16.21439428671972	19.16304795504359	19.02690530404887	17.583850322748066	17.771909391150626	17.67521674866067	18.122025367897304	15.917592496288066	17.78179318048221	18.65734027587657	19.849297826505424	16.154728551300206	10.925385222177614	13.151436642596597	14.245734323774066	17.08633122553352	14.366402242601533	13.886139176587792	16.958787337655114	16.84112595413138	16.05998977369223	15.092502461908797	12.871951923688595	13.900915133814326	15.798432502127566	14.014707730297097	15.470581957150864	18.443961446156628	19.32935208631774	17.127859480698092	17.620724816631842	16.115748293697834	12.940990603205405	18.488486976725202	18.03390106916146	17.43642511278946	16.17976342829186	17.746492434045553	17.317408374343255	18.90760169399817	18.472393393328463	17.63604372918144	16.816600847100556	18.169100702323668	17.071703941252636	22.08258571135537	21.198523530509412	20.88004648423802	21.539227893988063	9.555645411344527	12.605602514634516	20.05956115722656	21.479323348220515	20.587094288863927	20.471897624773028	17.78481687509204	18.560532033743037	16.13716974131112	18.296480909637783	8.347956268445705	16.849408922195433	14.768588171005248	17.33800805875145	18.742920297254283	17.13519103190118	16.742144616625527	20.034478046710774	18.527731396051145	18.661755766397004	19.55710989966507	14.154437301924442	5.385756462007751	5.580475467040951	8.413026087675933	15.307912277269967	10.208661891270005	13.54029693174709	13.941096826659228	14.83431570948158	23.481655373733997	24.246283101686295	24.19176069569767	23.956434214255232	23.793699752853577	25.61575036916882	20.75947451612224	19.991148358946262	23.961746885947314	23.14724869789396	22.17797169348214	22.54905140776148	22.02522358955147	22.808751978699306	19.482237466040498	21.842155716312465	21.928005061924562	23.49531035953098	19.407605177114817	13.508525755394388	15.595849103397793	15.877189108819673	20.042919644065524	16.81951456172492	15.45113388994752	18.34847735905949	17.664453046156627	16.9158549055589	17.977513928114053	15.026778095613336	17.322727108192176	19.13426370691445	16.005181204080582	17.92762908753014	23.703744198478528	23.630946327206274	20.99415838915661	20.93193980331963	19.06878191392758	14.562505138968783	21.797605059464825	21.42128457560146	20.915102670231803	20.10574158138901	23.385519485389082	23.047492890591233	24.61322047524993	23.711033361327285	22.19277975986211	21.398289581436803	22.346564199616008	20.546832961415777	26.63405485116074	25.506604658892044	26.511934022205633	25.997335502998055	14.562947415894092	17.762386482025757	20.409909531474113	21.95663814155423	24.045484408387374	24.13734089236713	22.444201982475274	24.258325096620965	20.244813505808512	23.46214595933755	17.51117635363931	20.92299343290783	15.952861044555902	19.98060435182258	21.515004837616562	19.99719318287673	19.73030892581233	23.819373025762914	21.919635218145643	21.141963062320375	21.933060978727216	17.22056759731925	7.321380281448365	12.540039205551148	12.526406824588776	18.738188291850843	NaN	24.776374484874584	23.232941463719243	29.748581482518105
60.0	90.0	19.771913923541668	20.338336242440953	19.551894233843825	18.88220095738984	19.693006228683586	19.04456019977947	17.327545547920156	18.27698782735796	19.53985059026122	19.64997634717836	18.845483927640807	18.758061423672746	18.882110009874616	18.31488679064902	18.435557959031087	18.138492649251763	19.461631076155463	18.759169601676454	15.699629398430286	13.827558824058736	18.478860892747576	15.552565138680594	20.539931664940056	14.385791756443142	13.947437867205194	16.845771962688083	16.378264429382465	15.919332423780718	14.642164058484605	14.529263986428985	15.569309033734307	16.57418060762115	15.492373006973974	14.446076832169407	19.69918394865634	20.623320230710306	17.986349219495377	18.03579487120278	16.789283459367496	14.408051086308664	19.082432591449674	19.07635010849977	16.36695011098933	16.02750207755366	18.912715629811753	18.521113595878234	19.468119705327197	19.920700478025243	17.94254080922152	17.525203068446057	19.220321255446922	17.872095546855846	23.790439624134084	22.950283683800116	21.297937073448022	22.026511708862444	10.894629684685786	14.5739414098821	18.40819055850689	17.127941287293726	21.960933785851836	22.28802707142438	18.363305877847324	19.251841032734283	17.419410733343327	21.43308716926022	8.335344268476113	15.948356132507325	16.862349729537964	18.9784262777921	20.329299479035946	18.913153619786655	17.148758090151983	19.918839537246768	20.53472118504701	19.58215902868881	19.94301933374855	15.416906792095718	6.422250837935135	5.703807825967957	10.703187650000608	14.37778772281695	11.764749487374454	14.063066991179019	14.61668270719836	16.43275578132788	24.279375286665637	25.401809601740965	25.33880775016651	24.753959813128656	24.803780703659516	23.609461908340453	21.055403235891593	22.537657615827477	24.30960733597544	23.928905294963293	23.704358222703473	23.89047136490745	23.763913287491096	23.081995283774887	23.016389615854987	22.2250665372877	23.00408042684118	22.09627641836802	19.01692442854574	16.94374538350988	22.09083408779568	17.419204914208613	24.205726951101553	16.849277505951544	15.555364104897476	18.223700962489165	17.275447082991647	16.900456424308032	17.336772769820847	16.99791337741045	19.302422126731777	19.82189909810737	17.679091207122802	16.62538820911315	25.272163696053084	25.291876965592408	22.193983799529214	21.436779584855127	20.15438978860874	16.171456082889012	22.548980837190655	22.76678423579292	19.667663527316734	19.90477805192234	25.117448611038927	25.110794946111206	25.307680148457646	25.719537204736238	22.54400741558029	22.28921783025942	23.638630403725625	21.51470899155358	28.86210867211893	27.7303795731838	27.155376901248605	26.524086411604305	17.187737797934616	21.21640585875902	18.87431751191616	17.48937159168477	25.016704788176114	26.258268645678644	23.14512721111147	23.077055196680575	20.835096910264756	24.85374046696557	16.704820014603502	22.386397588820685	20.776463667551678	22.032927356074364	23.489107714338417	22.31210558757063	20.335038432445295	23.56934641276261	24.610056065640798	22.200481844619798	22.31658060179552	20.113923113793135	11.427013802528382	7.731833457946777	16.420399193861048	17.780242267407868	NaN	26.210611468222407	23.28013544289962	24.266101129593387
90.0	120.0	20.441279745894214	20.237386191380722	19.61112776148797	19.38668795721095	20.93307736045436	19.444074299571277	18.57085950450694	18.270251108995126	19.996811611506303	20.018880650870383	19.09932980540748	18.762480421551054	20.06004756052691	19.171651087146746	18.766014048031398	18.433117184288058	18.859837624185904	19.28994917391136	14.424956042750352	13.83147112855857	12.48560391444909	17.969856425694058	19.199013720941906	16.192268543636676	14.307510818572755	16.181227066687175	15.590301907007595	15.694650625571226	15.375962235804263	14.741466052822199	15.40960035065061	17.23481157519684	15.030596462062558	14.20957235180879	20.074580497624304	21.05473155393439	18.744787323932208	18.56574573590394	16.80052178778819	15.716033897797267	19.90056031654931	19.043991834717392	17.13062304147282	15.6456964340899	19.5092221821031	17.709880536794664	20.112597245041258	20.001631239288773	18.33058065631445	17.403134210931025	19.905530411359106	17.60293374159659	24.070255750036452	23.137568592152945	22.287971794657587	22.242004654085527	11.355010575523242	15.28028430126618	17.835629015702466	20.57764009553559	22.5654730787561	21.708412217969535	18.154430751663796	19.685987505322597	15.509936462328271	23.13656935023801	8.538421369819913	15.7390145111084	17.63607265472412	19.203051652735155	20.60349500468958	18.767355739687442	17.53039579689503	20.36109222423944	19.369282828848583	19.770059050562764	20.49919844394746	15.536245771487994	5.732565698383842	5.7234656173893	10.308817189048838	14.863749914531466	13.284954242258264	14.534380883059294	15.194602411199005	16.553814076973136	25.16289898087864	25.15215623250546	25.225860789843967	25.360585693240782	26.287740672927306	24.100029873847962	22.52973864513895	22.621552304392274	24.851843933900845	24.35328887639727	23.908525750891236	23.792199435163752	25.421472864724247	24.144485510454214	23.356294588485675	22.447836045602067	22.175196944926178	22.731428902237504	16.38908927105675	16.58502323925495	14.562345850384897	20.50550755587491	22.11080783346425	18.97926923792849	15.853044950684836	17.57675012380262	16.742467445902307	16.648798895093194	18.34111264649992	17.14896847405133	19.030794442446908	20.516453135821777	17.034453489780425	16.22824088360484	25.89312733567412	25.732686087022774	23.090212523403196	22.06659125458275	19.91565740539296	17.55484863485609	23.53776215934087	22.64311850545715	20.541449490531548	19.332283348527575	25.84945754795107	23.554358645959244	26.104724348070537	25.723451838161193	23.005566737757484	22.014359170118695	24.4920945903796	21.07226418637392	29.20350924693177	27.793780314509924	28.297288976994956	26.73842341914628	17.630683645872928	22.047963014391602	18.113657876849174	20.929611001695907	26.427197170496786	25.429299847655923	21.38553235586116	24.350255795829316	19.110861990186905	25.753245910008747	14.02750528996458	17.67776834397089	23.260620699988472	22.269124358222726	23.723097375688706	21.896627665127685	20.7623284059509	24.008347798286852	22.987351510001393	22.381512052482606	22.899849537922027	19.762815858824585	10.939846658706665	7.209445977210999	14.884867007635078	18.430070567549322	NaN	28.588928374537716	22.385698183723118	21.389282288089877
120.0	150.0	20.13173666207319	20.390615560264536	19.605373218915105	19.219786941404145	19.566917279609164	19.97560126231267	18.823234611731532	18.99742164967665	19.461066152200274	19.856436078365032	18.854725104265732	19.140594416427344	19.895329190017584	19.251060173349472	18.74383646128129	18.44554464331953	19.795243822242135	19.151201592639936	16.98762773656521	12.539938752398346	11.359019041061401	12.994757798739842	16.167215223530775	17.91796307711257	13.334395774501436	18.05015865677879	15.390552138403264	14.618285584653545	15.809858903923576	15.058697369691501	15.014680990358679	16.30409206085352	15.481375103571684	14.30561477639064	19.55142455179565	20.974811688277683	18.461472266775264	19.043405404863137	17.348707350662778	15.246861838771586	19.464972462659613	19.197994661094864	17.586978896804478	15.766395036810138	18.66281955692142	17.674610312584072	19.716368780513996	20.052718070563387	18.294651169016372	17.596539573483895	19.540880122677525	17.945319493901827	24.17395356790109	23.52318048927842	20.987247330588765	22.04656221240438	10.628842752593707	14.744247815672871	20.640164866814246	16.789259073685628	22.42816229779538	21.870182846795473	18.26775175305544	19.1960054967077	16.214772825102205	22.253659642261006	8.591485622775231	15.684370708465575	15.88137351989746	19.284255424284904	19.817992658407146	18.058051414357006	17.475521206042984	19.840071754100528	20.652349191288838	19.74883555909478	20.322476303673497	15.688733797180436	5.229872715865882	5.736301934988102	10.166055511269304	15.640089886097968	13.273512295828569	14.616182324940507	15.368540404450098	16.167105616525642	24.73661768917373	25.335271394041982	25.31543633645041	25.227773975778973	24.39633366429662	24.59893975019455	22.815967049806016	23.60711862647015	24.115513360840538	24.129167918905615	23.557053211854804	24.34911858733487	24.868342266708122	24.221431948503472	22.99617219039178	22.356125387979382	23.269266687532088	22.61789662837982	20.24922150619759	14.916388264408818	13.451233095592922	14.850553886456924	18.72577368280162	21.058246838149206	14.815130155446917	19.47614594350887	16.393393785646648	15.53371641171717	18.793670808691285	17.582034275166063	18.383357887578786	19.397197428396193	17.508072859191895	16.27187880232612	25.030270857615683	25.552126463941242	22.592974771653985	22.619486770404478	20.65384618197337	17.018153721512782	22.95689575519297	22.793358049779254	21.099264240264894	19.741735889711453	24.383609552808355	23.432938377578573	25.57070467694396	25.817124731469253	22.979301372493	22.281835282888977	23.877031145116955	21.473659497572246	29.203249414239377	28.285868965069866	26.693829073208136	26.378814925144038	16.014744637706386	21.56044032799253	21.005911633372307	17.18929944719587	25.601052180181778	25.195613825984662	21.02667882268792	23.386428293407473	18.99379071791967	27.565072973569233	16.04107969019327	19.46693193344843	21.426355361938477	22.351878788866355	22.764012040460813	20.937308974485095	20.583872323542984	23.471258295516016	24.64069540849546	22.276136141869063	22.69427638269364	20.930895967510246	12.694879412651062	6.3593648910522464	15.939955818409823	18.92477137582344	NaN	27.216630582456236	22.70198850631714	23.36793376553443
150.0	180.0	20.134129044080865	20.27586723555838	19.005170277952423	18.68191813211439	20.133988588376152	20.00321808175726	18.348758881577606	19.137700225346123	20.057022657968794	19.713977374424932	18.116905342948986	19.159327085701246	19.437767050320044	19.62920635803618	19.191208135108557	18.504881373215547	19.49378099303315	18.401002525087183	17.138944447446033	11.872052198106593	13.64279706227152	14.754630075182234	19.812164612398803	15.95256676133146	14.129682363347804	15.837040799004692	15.334760463732179	14.949861184144632	15.488985696864177	14.212281556124323	15.304280762926174	17.88622698296931	15.699187350973279	13.931263610909257	19.24013668467047	20.771874804415944	18.788945205803113	19.01099202111938	17.5308053159288	15.034859927181612	19.69916518093173	19.075655686712143	16.09726112673742	15.433785988975236	19.15858184790433	17.635516256154187	19.330450235547453	19.68744421509624	18.084957601057155	17.49583401683341	19.233442180508664	17.837448462323547	22.844512955307433	23.11373404278988	20.850439590356977	21.032624970414762	11.462827076563794	14.425413369144641	18.8706613614009	16.2279538232453	22.298870844797822	21.244884029050226	18.184280824906068	19.228382612585083	17.142410035272245	20.938633540978177	8.375401661870447	17.770197792053224	14.494996995925904	19.432010366145313	20.285411661807622	17.523562824700576	18.175750706683505	20.3961597263135	21.623489755636843	19.26716861825935	19.973540309117617	15.240472604192652	5.343193877773592	5.428830010216718	11.220831334590912	12.855211088928995	11.37467452903722	14.568506012104809	15.17927669530832	16.249331070871087	24.696838919099395	25.117424112537915	24.506906587169283	24.477593716898976	25.141774510762776	24.713144209384918	22.32536921625552	23.621066028760826	24.886121376073145	23.91948968778338	22.535370239797576	24.305744530798368	24.29797492869782	24.53205921659138	23.803500267854783	22.63933536187926	22.85827991255223	21.618063373035856	20.515519518497563	13.636373966932297	15.985485709375805	16.858217759565875	22.82299810907115	18.607962343000597	15.616170890109483	17.158453859860384	16.295775899792662	15.757900973336886	18.40300004217068	16.60806096039544	18.893784109512367	21.351308940830876	17.84983109664917	15.919352893661005	24.579253026242956	25.29875418965756	23.032950186178173	22.52815552882653	21.01472309711251	16.759158251228786	23.232363799075053	22.601602866123628	19.21484093939672	19.185774133405612	25.341955535101206	23.50639529641503	24.967523099640175	25.282593578768733	22.635302578860248	22.082107849361854	23.462111377926423	21.30898126629664	27.48426742688801	27.736273152534864	26.499872498163363	25.154927795698534	17.869456759228637	20.73138400891928	19.20472502708435	16.46545242776676	25.46946505160635	25.021247310741156	21.17269522272396	23.545272779260944	21.42157292895847	25.717465228504604	14.712048904315845	22.11852282569522	17.868923955493504	22.520205760270024	23.310551074418154	20.299878890438553	21.500431278519763	24.014027579282658	25.9368657472657	21.755789411393575	22.285522166192283	19.933068384234186	14.056768703460694	10.276728910207748	15.6478652066114	15.224213061886921	NaN	26.79805683736448	22.352082799439845	24.667030468583107
