start[seconds]	end[kBq/cc]	FL_mid_fr_G_l	FL_mid_fr_G_r	FL_precen_G_l	FL_precen_G_r	FL_strai_G_l	FL_strai_G_r	FL_OFC_AOG_l	FL_OFC_AOG_r	FL_inf_fr_G_l	FL_inf_fr_G_r	FL_sup_fr_G_l	FL_sup_fr_G_r	FL_OFC_MOG_l	FL_OFC_MOG_r	FL_OFC_LOG_l	FL_OFC_LOG_r	FL_OFC_POG_l	FL_OFC_POG_r	Subgen_antCing_l	Subgen_antCing_r	Subcall_area_l	Subcall_area_r	Presubgen_antCing_l	Presubgen_antCing_r	Hippocampus_r	Hippocampus_l	Amygdala_r	Amygdala_l	Ant_TL_med_r	Ant_TL_med_l	Ant_TL_inf_lat_r	Ant_TL_inf_lat_l	G_paraH_amb_r	G_paraH_amb_l	G_sup_temp_post_r	G_sup_temp_post_l	G_tem_midin_r	G_tem_midin_l	G_fus_r	G_fus_l	Post_TL_l	Post_TL_r	G_sup_temp_ant_l	G_sup_temp_ant_r	PL_postce_G_l	PL_postce_G_r	PL_sup_pa_G_l	PL_sup_pa_G_r	PL_rest_l	PL_rest_r	OL_rest_lat_l	OL_rest_lat_r	OL_ling_G_l	OL_ling_G_r	OL_cuneus_l	OL_cuneus_r	CaudateNucl_l	CaudateNucl_r	NuclAccumb_l	NuclAccumb_r	Putamen_l	Putamen_r	Thalamus_l	Thalamus_r	Pallidum_l	Pallidum_r	Corp_Callosum	S_nigra_l	S_nigra_r	Insula_l	Insula_r	G_cing_ant_l	G_cing_ant_r	G_cing_post_l	G_cing_post_r	Cerebellum_r	Cerebellum_l	Brainstem	FrontalHorn_r	FrontalHorn_l	TemporaHorn_r	TemporaHorn_l	ThirdVentricl	White_matter_l	White_matter_r	CBW	FL_mid_fr_G_l_C	FL_mid_fr_G_r_C	FL_precen_G_l_C	FL_precen_G_r_C	FL_strai_G_l_C	FL_strai_G_r_C	FL_OFC_AOG_l_C	FL_OFC_AOG_r_C	FL_inf_fr_G_l_C	FL_inf_fr_G_r_C	FL_sup_fr_G_l_C	FL_sup_fr_G_r_C	FL_OFC_MOG_l_C	FL_OFC_MOG_r_C	FL_OFC_LOG_l_C	FL_OFC_LOG_r_C	FL_OFC_POG_l_C	FL_OFC_POG_r_C	Subgen_antCing_l_C	Subgen_antCing_r_C	Subcall_area_l_C	Subcall_area_r_C	Presubgen_antCing_l_C	Presubgen_antCing_r_C	Hippocampus_r_C	Hippocampus_l_C	Amygdala_r_C	Amygdala_l_C	Ant_TL_med_r_C	Ant_TL_med_l_C	Ant_TL_inf_lat_r_C	Ant_TL_inf_lat_l_C	G_paraH_amb_r_C	G_paraH_amb_l_C	G_sup_temp_post_r_C	G_sup_temp_post_l_C	G_tem_midin_r_C	G_tem_midin_l_C	G_fus_r_C	G_fus_l_C	Post_TL_l_C	Post_TL_r_C	G_sup_temp_ant_l_C	G_sup_temp_ant_r_C	PL_postce_G_l_C	PL_postce_G_r_C	PL_sup_pa_G_l_C	PL_sup_pa_G_r_C	PL_rest_l_C	PL_rest_r_C	OL_rest_lat_l_C	OL_rest_lat_r_C	OL_ling_G_l_C	OL_ling_G_r_C	OL_cuneus_l_C	OL_cuneus_r_C	CaudateNucl_l_C	CaudateNucl_r_C	NuclAccumb_l_C	NuclAccumb_r_C	Putamen_l_C	Putamen_r_C	Thalamus_l_C	Thalamus_r_C	Pallidum_l_C	Pallidum_r_C	Corp_Callosum_C	S_nigra_l_C	S_nigra_r_C	Insula_l_C	Insula_r_C	G_cing_ant_l_C	G_cing_ant_r_C	G_cing_post_l_C	G_cing_post_r_C	Cerebellum_r_C	Cerebellum_l_C	Brainstem_C	FrontalHorn_r_C	FrontalHorn_l_C	TemporaHorn_r_C	TemporaHorn_l_C	ThirdVentricl_C	White_matter_l_C	White_matter_r_C	CBW_C	
0.0	15.0	-0.016470528513751536	0.06013442188300147	-0.09157340700783508	-0.03766338126743169	0.0028846113816390004	0.05939025538582247	0.02349161687479173	0.06563988404481538	-0.0458184306949544	0.054500333572817264	0.03452121069256501	0.03196411610607507	-0.06958551846021091	-0.06859442177433042	0.1409200990502458	0.08489129409855722	-0.023727423756634898	0.052607648704096344	0.087034210082385	-0.04080674984173751	-0.03839387984848336	0.002214929659385234	0.13003055344454442	-0.03642105496807122	-0.03943126275485253	0.07686557122592387	-0.04187857084435492	-3.871408137681886E-4	-0.052697382762282065	0.02000497944011636	0.06158506927758016	-0.11566991597770038	0.02576954700812277	0.02600988429436399	-0.0016893825058948103	-0.04414616406597052	0.04073600311152586	0.021802534396179924	-0.08113411077148903	0.11050240647482482	0.0012212728873942883	-0.0013124628592159344	-6.987933717758073E-4	0.04560880007718073	-0.05572627989735087	0.009123784905583016	0.04838310949228199	0.0194101454138074	0.026343801022700012	-2.224196179415246E-4	0.005980221047156159	-0.014789436326338707	0.03714357725886483	-0.03663029070923487	-0.04390081566419791	0.04336001135086971	-0.03158005380749336	-0.028204296255029994	-0.02771242495912772	-0.23449959574571375	-0.03420722148896835	-0.10837840696376648	0.033216637307973654	0.04529315642103792	-0.16139598313161824	-0.16763929132617345	-0.03665762078407646	-0.08536447403021157	-0.10497842982411384	0.030490491473207326	-0.05589942110274184	0.05301022891516743	-0.05108506557373692	-0.006844559453677271	0.0356467739854896	-0.012779025717907762	-0.003606996303538807	-0.01427370494169757	0.04355799673296739	-0.03984593950900312	0.11678879922773275	-0.038332904482708326	-0.04678734569754076	-9.465504161381919E-4	0.008299182528055818	0.019470686346045044	-0.03800994316737961	0.10418356509023485	-0.17479727535009762	-0.027358803341252097	0.034047019554347524	0.11490686747061392	0.047738331360586486	0.10611704668004646	-0.07522814363183382	0.0798929332199902	0.052707683577019354	0.059578038044010684	-0.11790561942766804	-0.10358557359178723	0.2225695868762413	0.12398206872288071	-0.040075777214854585	0.0691726963683238	0.14420473701634015	-0.031010113949613536	-0.08102755106397365	0.007095467641620952	0.14454770794483401	-0.03576044089277275	-0.08235729239377364	0.09230983036256991	-0.06564439368009081	-0.005041858181757895	-0.08378269432671909	0.021108351249451058	0.10361577375342362	-0.14369292086813812	0.03125448640412054	0.031152682488338433	-0.011699192272173819	-0.07578870499225307	0.07086266630629241	0.03876209943274209	-0.14733338995536865	0.1367136087461355	-4.783136992475037E-4	0.0031785560892678977	0.0041820842585390166	0.05875097609165416	-0.08323167186062723	-0.019442922889371998	0.07445280778825382	0.03631500438978978	0.02886689698473447	0.011968845947389188	-0.0017214230602882366	-0.01796426543755443	0.04060817957367744	-0.06410409603357421	-0.07441519665601051	0.06970793134780116	-0.06133079897112629	-0.08690003304143398	-0.02836124166273154	-0.2416446820522348	-0.05425120979467299	-0.11958013981070724	0.10176175995535297	0.04036099786351674	-0.12936946547900638	-0.054988980293273926	0.03265643940846387	-0.4053107127547264	-1.1233900785446167	0.042146219129837195	-0.07120574425939648	0.07242076806100907	-0.06862047007758833	-0.021987527074796814	0.047080237993810205	-0.015570185640838237	-0.006500759436612013	-0.03452787952790152	NaN	0.8204765170812607	0.7654707883484662	-0.07304954551288793	0.0939050813515981	0.15417041319111982	0.07192351568901781	0.2957470783963799
15.0	30.0	0.5628261424017269	0.26891405272140373	0.6589949072498387	0.5224151570935521	1.1693974150581794	1.6365138756382835	0.18376420399647883	0.47652668940999426	0.5358115837028834	0.5860077683029108	0.4930015027727475	0.37830872064875054	0.9716900653564566	0.4722558102735998	0.22744755376003345	0.3109712775698618	1.0691216889937365	1.1016208517457111	0.935672406245161	1.747795907878562	-0.01936110187517969	1.4384784676134585	0.8755949885569747	1.2715826102189327	0.5087361401269749	0.11360601016453334	0.9118197966057996	0.7008150127760142	0.5067101873892738	0.39985150990213386	0.5227414529301028	0.5386746073925187	0.4485952917210061	0.3873605524758175	0.585400672509502	0.5473388329286438	0.21817982632077115	0.402418470823034	0.6868301722967929	1.5080939104726612	0.2736407447849515	0.17083612170543172	0.5025647550710515	0.9230162215380598	0.5379183291649028	0.4605264750132163	0.4169671455838073	0.30799892639272375	0.47319043388842463	0.30647478098219566	0.23625237971602392	0.166755595159965	0.24631760386401272	0.3362827888332311	0.19681100617588645	0.2717215043034142	0.3096081876504015	0.17592097874899948	0.6684515852194566	1.8913910469534445	0.9909637337829511	0.6297438578084269	0.11471717416938029	0.20600145876655312	0.46333129260490097	0.16595534091266456	0.2353664668351398	0.6241955259919633	1.2612122524157166	0.9691815668891011	0.7239074510935021	0.6185878190162304	1.2830158323724026	0.5213042818369195	0.09331055345706815	0.23815225448143026	0.2439237614353189	0.564364004405819	0.1414153381588403	0.3135733904919642	-0.04207587328144453	-0.10009597225374059	0.06345344233895409	0.2763833994125995	0.2801088971322845	0.22416216721214333	0.7503073009367737	0.3234921500384727	1.0569067474610536	0.8248474789062685	1.6591145891828247	2.235685011008105	0.19021848708605082	0.6510520920517079	0.7260326539427236	0.8154349894191107	0.6701755829103765	0.4373545044836868	1.309075050401381	0.5509662503554612	0.25003501837819714	0.4651119932974605	1.4171924152772435	1.426344424165612	1.3329357906746178	2.38868548133794	-0.030864309715597255	1.977673991199802	1.0608157272550411	1.4890524625079706	0.974228047073833	0.1719010554779497	1.0110649474157507	0.7098114605578637	0.5805554148190448	0.4620530450658158	0.7220845671474998	0.6757507541832785	0.466471370385112	0.5058951325685733	0.7831905526253655	0.7729555956525838	0.3129197763541867	0.5169285786908284	0.8355992767768465	1.9693700582319675	0.33225121280416753	0.1867929828313419	0.6361163627726379	1.2227276719166786	0.804223145474006	0.6255560832054248	0.6140199745272796	0.4159813727691963	0.6705337336037908	0.3858139666295055	0.2979455152209714	0.19344570839765227	0.2805937965537803	0.45166221403689494	0.25437313571595216	0.32579218582904335	0.4001338274142761	0.4502984315134534	0.7410830256457512	2.170706633323183	1.3521896037011225	0.8465858962753732	0.06448424203985456	-0.1461668900006397	0.9495813822787669	0.11009339491526286	0.8289264870905563	4.192290484905243	4.7569379806518555	1.22766268442464	0.8994284982680879	0.7955662206234411	1.6525015947164878	0.66636316730312	0.08110472095953403	0.2702771567977024	0.2717620141139777	0.8492859993061934	NaN	1.3429704457521439	1.2055997550487518	-0.010617675131251073	1.5049420595169067	1.1889135110709401	0.9411400795675987	0.5981601883967718
30.0	45.0	7.9025095781740475	6.37377729448672	9.240787498679714	8.765449791133001	11.228241584192622	12.724523670724686	7.149083517858992	6.222976326959339	9.846379903717862	9.28439933452355	8.91656083762987	7.829668276996158	9.162007383459452	8.517688587698807	6.806347464380616	6.947654114762667	10.30562347126149	8.781090021437825	9.661404881653961	10.928318701292339	12.04237927888569	9.102017790079117	11.295373872039825	12.10625026414269	7.254753622612816	4.854900750996811	8.773770206260242	7.2799679176547585	6.266933136294116	6.563282768194994	5.586786180609063	5.277204492075182	6.815223566385183	6.040325788804247	8.395498862979512	7.460186847085571	5.078820161374575	6.136800499660084	6.2888919999284525	10.028519495103184	6.707677339059616	6.50412688737751	7.012115329890694	7.608213962324482	8.162770956572622	9.56384171667138	7.13284338837331	7.520513386298141	7.4266633043383	6.5844682640323065	6.222416614741087	5.99117744290514	8.53545256638703	8.485293709117002	8.374925954024699	8.854726723759807	7.7113402742624455	3.9772397796577432	11.162104918406559	14.52780414114193	11.625935756373684	12.373557749713104	7.883903693406993	7.1109679264273495	8.926328406542613	6.360616215041294	2.7000314191908164	8.07876563347876	9.114134928509593	11.012241513872025	8.17019984412613	8.224939085502434	12.574805270470376	7.1451028411862065	8.377115150335039	8.68385973016476	7.23034718707869	8.709717980011987	1.7926676165421183	3.1967485087113485	4.731497650655608	4.681044785977824	6.108714280199985	6.065679781129833	5.6127664074514705	6.429823125098313	10.775585767533228	8.620632293003611	12.866553729290409	12.086222480033921	16.32834051298659	17.329177318894587	9.425565172557198	8.330275033324185	13.365979722268749	12.447357839603141	12.162220678062361	10.540282956619869	12.325656467192882	11.017867739263334	8.764935001198735	9.24280946372631	13.86066961767181	11.23063165054245	12.451509569126825	14.542381959802965	15.659072223462557	11.687175084562863	14.20415083212512	14.695871012983844	9.937785174469559	5.86366851915404	9.650995783831762	7.585681198780006	8.119682999465633	8.279096685922552	7.336983896997468	6.874080405480439	8.59287727378691	7.524225419403141	11.616684561893807	10.142377251415269	6.646403661625125	7.979103114146792	8.165077736292494	12.685674836485154	8.609760650144873	8.381565003053042	9.136495164933098	9.911252297217587	11.637255453130296	14.120618025503557	10.066613306822822	10.489603263973633	10.215076021297772	8.86075370150226	8.025732475417492	7.870287764358789	11.187084584926847	11.225053159041595	11.550720865010938	12.13384124758677	9.821678797634167	6.7393999231076736	11.995740993206317	16.088702936967213	14.330831738526038	16.58327790101369	12.151942535643375	9.644868819558885	14.341174787945217	20.270570755004883	5.587203988642023	35.33660411834717	45.53934860229492	13.817506934384792	10.267740359455471	10.115264650302775	15.955744857551851	9.013189467762517	11.092608313933727	10.408558655063644	8.50281135493337	12.965601796864883	NaN	4.573175221681595	15.186161205172539	8.690034278507891	28.278196334838867	16.441128974490695	14.083684980869293	10.861367845535279
45.0	60.0	17.574913666731963	15.823931673319851	19.103556547120522	21.027608622586836	17.263401238918306	18.396243759387772	15.62624369147071	14.921665173539228	18.029261601982256	19.625598609656414	18.986216254320492	16.965564362239675	16.617455508107643	16.29004667460025	13.774703928862106	16.921195970017493	20.01490590731303	18.29190425951657	16.85309179800528	17.741954364274676	9.954061031341553	14.773882448673248	18.668482067078116	20.02249156173907	12.124064035465981	14.229236846878415	16.36903187096943	17.1848818298079	11.356261025985054	14.442331422530293	11.142807655957307	9.639034250068661	13.703748763243599	14.362862833348034	17.04698487142794	15.590329445254147	12.642561093123977	13.256361900341734	13.310853692270193	15.016508459232531	15.45952492431043	14.844973937969721	15.735360496881727	14.2197002237709	17.44723520403537	19.133564991960334	16.758929303709618	18.2372891166963	15.180254528274393	15.06351544421858	16.167340075262313	15.975831631306047	21.848207175859475	19.63974699412739	21.19494069271109	20.685827725582325	17.56690904563744	9.738103665243335	18.928309954129734	21.286392581706146	22.05525984338462	24.67941807830194	17.39423937249963	16.81547650118632	19.689153124985186	16.337970147962157	7.824890594343777	18.82444068312645	16.14558479309082	19.756438976795053	18.7870250286884	15.981110009662181	18.836933987510854	18.501956111052756	19.859088231644833	21.321195257372096	18.084884139953846	16.942812650103082	3.8957802620482593	5.845014415130642	8.48446850899469	10.001823009569433	10.852607386574249	14.323083248541675	13.794200454281928	16.137957841124074	23.749210100935688	21.41696434520418	26.260486223460788	28.555745032316306	25.139820369860022	25.010276827701304	20.185300704238838	19.92950370521298	23.990377176432027	26.099971781592398	25.046328916501892	22.646164802884588	22.997006073168986	21.58683174646297	18.106378114649228	22.68008263393115	26.316185449969794	23.202881973219473	20.852086007595062	22.44240947330699	12.672091910713597	18.642379802816055	23.092123789446696	24.274196192622185	17.302609565838868	17.02099646144622	18.80690071634624	18.652266598622735	14.319823666817145	18.044803963716376	14.022830257539091	11.807407694670461	17.3375702687372	18.235939058610516	23.439573702392	20.637590669485142	16.78726780333529	17.12151063622474	17.16083854813486	18.603398214106807	19.709572489042266	19.05675317753392	20.50118399915737	18.065843395549113	24.671583956623767	26.329211411107853	23.94237260146361	25.550161442969625	20.548150400294954	20.327428535708343	21.10356504045071	21.421699580630584	28.87191159271872	26.168873590424173	29.817968651573075	28.52369011004025	23.47973293486214	17.385230863985328	20.161185866135817	23.526167690753937	26.571545489852582	30.612480342130123	25.556139038133754	23.079238268217647	34.575036803881325	35.575826009114586	13.024356508464145	37.42309284210205	34.821800231933594	24.427919507474424	23.466854516757707	19.494967424878304	23.621605290800975	23.648478672142616	25.61585928692261	25.52469445519201	21.358236956613155	23.647322376149816	NaN	14.9608633518219	21.876019597053528	15.785071068796618	49.53714497884115	23.883240679899853	26.297635056251703	20.153488286336263
60.0	90.0	21.4119558601101	19.71188382185383	22.425715349888364	23.9434707576498	17.531883905584163	17.57381361841366	18.7624426031489	18.83048504928883	21.429798961038177	25.178890392148695	23.165988930847487	20.41967624368289	20.323465124134458	18.377416105801338	16.02340824697802	18.673831222460212	20.31958839143316	20.632841803220458	20.491331318572716	18.724474442632573	18.119547643159564	14.327456545829772	23.89176289115365	18.721050249902827	14.961557756713097	17.447793101980572	13.327686547134329	18.324790271046833	13.775169184273846	16.474540441158855	14.668778778461927	13.57918191744537	14.72334791441274	16.387730655721075	19.719070058234415	20.213192025987095	15.783035438754984	16.052237567844827	14.321112093118835	16.970257529027418	18.754975600371562	18.830836314272272	18.43603948656068	15.206818908008177	21.390280734568055	24.43097826683226	21.931489821152827	21.96013816010789	18.796588783099327	19.465658302809516	20.05037787161324	19.87322373112586	25.363471072089936	24.10421714004872	25.10916853847922	25.27115196443051	20.2044826780997	11.898743342605586	19.489237154447114	22.281138011387416	26.156499898449106	27.70656113394547	20.077037432201344	18.907782634632284	23.68322895337077	19.281603142835092	8.208464204274648	19.075086193084715	19.658302898406983	20.202088052189726	21.873348720183895	21.255563782731524	20.75316431752362	22.778305604529102	22.603984899992167	25.029012569447076	22.4514479227803	18.50863169831045	3.385376195914578	5.891495283966622	11.306010801483083	12.367365704307073	10.75832597041915	17.432691193835986	16.853815812789104	21.700975789969544	29.26581247346355	26.846083977998244	31.48624444277508	33.20067810335511	25.196523140697945	23.618313993409622	24.582174268635836	24.953405641341416	28.644795048382026	34.08894505650443	31.18796057668382	27.201237528053355	28.488724976867527	24.560630597566302	20.595833329116406	24.637652862029263	26.543237161264653	25.961259367299636	27.024211755165688	23.399776671914495	23.82330016085976	18.2917101242963	29.907578417233058	23.00193202495575	21.326688540225128	20.476924586940456	15.728754600752955	20.111629101661368	17.456053010362766	20.705666246750894	18.76614493666024	17.502691356981956	18.777483184291768	20.530817795003582	27.11514688411855	27.215052889403562	20.86933396451144	20.764012980152906	18.41115870083848	21.009999484792495	23.908526042978274	24.48905622575298	24.065365915735736	19.56368675492817	30.167125331877262	34.822870312945696	31.427147129651086	31.3553639431377	25.701752280312874	26.4464800303819	26.320384607495548	26.854393496764526	33.65543113068425	32.565953729555	35.66447843769763	35.06992583554213	26.70794353815034	22.35902977686158	20.5752041890071	24.463563521703083	30.93028099381861	33.4793468037725	30.982620914002315	26.839781898006162	38.937122874789765	15.441211064656576	15.729201328728283	37.736417293548584	14.657553672790527	24.778679845556137	27.470535772612408	26.371503583823934	25.979482334547786	29.03921367150552	29.576000979485734	29.93307641383192	26.565087275615316	24.90023258994878	NaN	31.788169860839844	19.398794889450073	17.002108606798895	33.55290730794271	26.594774436950683	25.83532773616702	28.318225129445395
90.0	120.0	22.8800474039485	21.876541405577463	23.38260747838212	24.988393023697547	19.494140949249267	16.943689562429654	20.04657825062652	20.43275054079605	22.491401591578988	25.493885554106537	23.854020241643603	21.64111929063443	20.4248472327165	19.117268999332534	17.948310343612153	20.642227397400916	20.675313516344342	22.78325660497762	19.54519014711733	19.667526960372925	15.076318916521574	15.341572618484497	23.519043006296233	21.39410178284896	13.024024997619872	15.800119374479566	17.036618474441738	18.428323599008415	15.106541444954363	17.28683973472726	16.806617111302494	15.04470436156742	14.67379024237152	16.88890680129842	20.82952134681009	20.74336252717814	17.366091415716465	16.630086407361578	15.974539381118863	17.29374906446093	19.882623764232026	19.07919913391072	18.594143285627258	16.083828112379237	20.654558720624866	24.76336120344137	22.587520431146633	21.822198187256156	19.89225115961198	20.32143308537546	20.7914642541395	20.940456836938274	25.164713519739202	25.237531246920003	24.792884679984148	25.460212763409153	21.305543066559032	13.656077603705763	23.063904307438776	17.601020088001174	27.688933527947707	30.6789201452959	20.862459568345837	19.95510455869607	24.622600958185288	21.341540590000612	8.196715161006779	20.930659942626953	14.046616849899292	19.651301502690885	22.01757764282013	21.40305924622201	21.08079732127427	24.39103949769711	24.842507689220962	25.404815439542414	23.52072318743037	18.763048696984296	3.4941093415254727	6.392544310050872	11.427033851544062	11.075973347772527	8.352518757817728	18.560011501896618	18.08390493810493	22.266422308528263	31.44246600769612	29.98085900095682	32.259598279881374	34.695009347991075	28.03095440748261	22.82217702033908	26.110059945777273	27.101661173685827	30.14984092245405	34.2045917361337	31.947638307383663	28.75390504933308	28.49826775227223	25.875571598306585	23.29505289756522	27.141410362763217	26.881084189383117	29.344958072484925	25.354974535795357	24.60768070220947	19.36517750589471	19.60141316582175	29.187900926385606	25.872738048434258	17.771960535827947	18.526009530634493	19.942335356836733	20.147190892368283	19.314988608717304	21.8225224091221	22.12297790461573	19.384133375844648	18.251285195961977	21.096897936274864	28.564010193629294	27.969055201862258	23.119924051991067	21.291684690766576	20.95255206284458	21.492646764158973	25.473666563752108	24.642471372279015	23.99841575747494	20.62333378023652	29.17135454651052	34.696207095446425	32.530989909448714	30.899564914166493	27.18427763147155	27.558689180955245	27.16639388743976	28.225357718010027	33.02335000319585	34.164316616549854	34.91605177014432	35.298065270628335	28.366458934529955	25.584606897789996	24.23564635056716	19.162016734480858	32.52070545102674	38.12717592354977	31.43782353467596	29.081751153881388	40.321981853908966	27.48248291015625	17.551573663949966	27.98495054244995	20.46533203125	23.926750422861332	27.400251297308085	26.37077125431203	26.472410648420293	31.26163899574199	32.622336575242336	30.312170203074206	27.836021057197026	24.629303981731464	NaN	18.902260303497314	20.207919359207153	15.547487883732236	19.079434394836426	25.77773796717326	28.687502933102984	25.86945317586263
120.0	150.0	22.045452461831744	21.342723064987222	22.5815511646505	25.081649494940557	17.883230198513377	17.49589473956468	20.156163641375926	21.34147475014468	21.62419141145429	25.540922818149756	23.22557651420878	21.400579573226356	20.67167410997892	18.919893206569828	16.613066277636047	21.897345396290195	20.16733883857727	22.931980537069446	18.660231957612215	15.451177843830042	17.999257740221527	11.40739996433258	22.48970799934207	20.26060169621518	15.464961785585322	17.341261335781642	16.39938768703267	18.461642601551155	13.735071711603878	16.786225179611353	18.65420101197918	15.365030732735125	15.355377812211106	16.00168462346881	20.116830219970133	21.389277426488448	17.36692023035328	17.00224477640207	15.432640158006926	16.69389564560463	19.988664851712482	20.141195746130517	18.66441392189508	17.523380152621673	20.7690456362325	25.04796881556556	22.286159027830546	22.283279301886516	18.865570861559604	21.072924556584084	20.910308102381034	21.357145053907285	26.03243295868607	24.148452509748683	24.82099690581813	24.354026599970975	20.892914655275106	11.042959169484018	22.10583914243258	21.507859074339574	27.23625113214589	29.539438255140958	21.8833818557826	19.335812574486944	25.4485056238267	21.934135128334525	8.427760684453286	17.026626853942872	18.485775775909424	19.449701620227515	21.98963433337145	20.98644543894637	20.879538612597788	23.535407615211277	26.918937175357065	25.127917285481224	23.474909941703565	18.80069356021004	2.683669489449821	6.507882804765536	10.889700749958003	14.322321843497361	10.08578858462056	18.991113977410357	18.437199886440737	22.405966594482745	30.06859418633983	28.8791831076015	30.75336482262264	34.8669246491413	25.283418368275573	23.53347640148429	26.26669360233836	28.39777146704946	28.663753615019285	34.07932925054248	30.880119184606787	28.488173947265306	29.145036133201987	25.378065006678455	21.028780795279005	28.849975770519627	26.019168316388715	29.51104408253071	23.166991628133335	17.98740656516131	23.336568079496686	13.723382725435144	27.62527186529977	23.98684523999691	21.224774309567042	20.265198541654122	19.712571103935655	20.15129305682051	17.652669523340904	20.92618460032807	24.723977989986025	19.538294630665934	19.501756381835694	19.842593278783635	27.127854232906554	28.667918236526635	22.95640608705736	21.901385555589094	19.730116693940882	20.66150989792315	25.60850930378118	26.212688268042506	24.055048080510968	22.979048879675588	28.803396348439612	35.330152303655275	32.005372128251565	31.865391715129988	25.507731348736534	28.541452285437774	27.41345528071107	28.72259020946357	34.3540169662006	32.526172414384874	35.10277645036261	33.7329528697093	27.068792965019963	21.98761910261567	23.20715739910419	23.16927448908488	31.94310539510422	36.15781885204893	33.14567050827579	27.236225894369877	36.458342128329804	36.30929946899414	14.562211754029256	18.98625659942627	13.923613548278809	23.774253441546207	27.238767074070832	25.6981877319953	26.274949667754992	29.80970341241057	35.360347247026006	29.909133482951148	27.74101429033393	23.764073444729938	NaN	22.0591402053833	21.950938940048218	18.03237792541241	20.23965295155843	25.089220302634768	26.54781042143356	27.979835001627603
150.0	180.0	21.813083029326396	21.478423376494053	22.478110842876873	24.526584344083087	16.959971486871893	17.051760478524972	19.731635057950655	21.306404193783024	21.052979729356544	25.5413689195114	23.005946409391875	21.550052773557866	20.245741480496807	18.928416485960017	16.904471013695	21.72604889618723	20.042563125973658	22.31030214412667	17.99721229341295	16.894488819858484	17.78804241983514	14.94154372215271	21.331507284810225	19.46681765506142	13.158578124452145	17.312153785001662	16.014749430291662	19.817845234504112	14.66735497956137	16.83325928520928	16.84758064854011	15.622523355736304	14.91357960327854	17.1902510096382	20.219666097319962	20.851989084142165	18.118156541636175	16.657644185788463	16.061783811480318	17.232490192990895	19.60373703394986	19.953545183229018	19.00561302169105	16.983232999915508	20.57960918786277	23.737446853848617	22.382244971296693	22.125011404737137	18.853404307472015	20.99438593897689	20.181778259279604	21.110195489343383	24.09985759839405	24.904138109796744	24.251695522071177	24.161614816381196	21.96531412990083	10.117873558603826	23.27393420292781	19.264255445830678	27.081070094953688	28.827612257687644	21.133231930316043	18.557435815642634	27.10846456509192	23.133114160546935	8.207813708372193	17.969010276794435	17.499192266464235	19.823371550264998	22.30844814720608	20.534826463260572	21.173783851526288	26.99710690504459	24.39880071393279	24.9117202904862	23.176541856383135	18.922165932823418	3.5587300934504795	6.896349849248588	11.561240760471534	12.264888600458073	10.238734880149764	19.068823433000812	18.267832776727026	22.392356757716072	29.655635346901555	29.005714771170695	30.701316333915663	33.82857164032556	24.343389780928447	22.40402921410494	25.47282956547714	28.306401204650616	27.91528681609704	34.164372323072925	30.441153572897175	28.515003039032212	27.78191968556997	25.419306519949536	21.425767039766118	28.65359504932144	25.58266224255806	28.352251977421517	22.2031255788528	19.291893252204446	23.004281194586504	18.075055178473978	26.31219430906432	23.160911589860916	17.57805025334261	20.496477602301418	19.27764188206714	21.63255329307066	18.74413097402315	21.063124153651458	21.82335252268561	19.96895756106223	18.788928036200694	21.25083948767338	27.430089248929704	27.928959946071316	23.87114017802801	21.357949785422147	20.94217694687517	21.320806998595682	25.028174315715976	25.81632557661507	24.493976400408684	22.162214511071294	28.395296003257442	32.93391028688806	32.26176316296226	31.44496454453449	25.40126984505251	28.294025046107237	26.20627979839116	28.412171422263608	31.508007905937568	33.756969827666246	34.155253608017524	33.39253179758747	28.597901414953387	17.746949467423956	24.48992930192214	20.810148517290752	31.88684409029245	34.98456046694801	30.38411542964181	25.029460365760297	39.40682570139567	26.317458470662434	14.698524090281705	22.365134716033936	13.969527244567871	24.166454177540846	27.66346422656007	25.117601309471272	26.258604560968696	34.461904485756136	31.683300305707533	29.615637041050118	27.35630114823143	22.994862825162226	NaN	27.626036643981934	21.595810651779175	17.394678806436474	25.53540865580241	23.538727686802545	26.228214697089307	27.59519991874695
