start[seconds]	end[kBq/cc]	FL_mid_fr_G_l	FL_mid_fr_G_r	FL_precen_G_l	FL_precen_G_r	FL_strai_G_l	FL_strai_G_r	FL_OFC_AOG_l	FL_OFC_AOG_r	FL_inf_fr_G_l	FL_inf_fr_G_r	FL_sup_fr_G_l	FL_sup_fr_G_r	FL_OFC_MOG_l	FL_OFC_MOG_r	FL_OFC_LOG_l	FL_OFC_LOG_r	FL_OFC_POG_l	FL_OFC_POG_r	Subgen_antCing_l	Subgen_antCing_r	Subcall_area_l	Subcall_area_r	Presubgen_antCing_l	Presubgen_antCing_r	Hippocampus_r	Hippocampus_l	Amygdala_r	Amygdala_l	Ant_TL_med_r	Ant_TL_med_l	Ant_TL_inf_lat_r	Ant_TL_inf_lat_l	G_paraH_amb_r	G_paraH_amb_l	G_sup_temp_post_r	G_sup_temp_post_l	G_tem_midin_r	G_tem_midin_l	G_fus_r	G_fus_l	Post_TL_l	Post_TL_r	G_sup_temp_ant_l	G_sup_temp_ant_r	PL_postce_G_l	PL_postce_G_r	PL_sup_pa_G_l	PL_sup_pa_G_r	PL_rest_l	PL_rest_r	OL_rest_lat_l	OL_rest_lat_r	OL_ling_G_l	OL_ling_G_r	OL_cuneus_l	OL_cuneus_r	CaudateNucl_l	CaudateNucl_r	NuclAccumb_l	NuclAccumb_r	Putamen_l	Putamen_r	Thalamus_l	Thalamus_r	Pallidum_l	Pallidum_r	Corp_Callosum	S_nigra_l	S_nigra_r	Insula_l	Insula_r	G_cing_ant_l	G_cing_ant_r	G_cing_post_l	G_cing_post_r	Cerebellum_r	Cerebellum_l	Brainstem	FrontalHorn_r	FrontalHorn_l	TemporaHorn_r	TemporaHorn_l	ThirdVentricl	White_matter_l	White_matter_r	CBW	FL_mid_fr_G_l_C	FL_mid_fr_G_r_C	FL_precen_G_l_C	FL_precen_G_r_C	FL_strai_G_l_C	FL_strai_G_r_C	FL_OFC_AOG_l_C	FL_OFC_AOG_r_C	FL_inf_fr_G_l_C	FL_inf_fr_G_r_C	FL_sup_fr_G_l_C	FL_sup_fr_G_r_C	FL_OFC_MOG_l_C	FL_OFC_MOG_r_C	FL_OFC_LOG_l_C	FL_OFC_LOG_r_C	FL_OFC_POG_l_C	FL_OFC_POG_r_C	Subgen_antCing_l_C	Subgen_antCing_r_C	Subcall_area_l_C	Subcall_area_r_C	Presubgen_antCing_l_C	Presubgen_antCing_r_C	Hippocampus_r_C	Hippocampus_l_C	Amygdala_r_C	Amygdala_l_C	Ant_TL_med_r_C	Ant_TL_med_l_C	Ant_TL_inf_lat_r_C	Ant_TL_inf_lat_l_C	G_paraH_amb_r_C	G_paraH_amb_l_C	G_sup_temp_post_r_C	G_sup_temp_post_l_C	G_tem_midin_r_C	G_tem_midin_l_C	G_fus_r_C	G_fus_l_C	Post_TL_l_C	Post_TL_r_C	G_sup_temp_ant_l_C	G_sup_temp_ant_r_C	PL_postce_G_l_C	PL_postce_G_r_C	PL_sup_pa_G_l_C	PL_sup_pa_G_r_C	PL_rest_l_C	PL_rest_r_C	OL_rest_lat_l_C	OL_rest_lat_r_C	OL_ling_G_l_C	OL_ling_G_r_C	OL_cuneus_l_C	OL_cuneus_r_C	CaudateNucl_l_C	CaudateNucl_r_C	NuclAccumb_l_C	NuclAccumb_r_C	Putamen_l_C	Putamen_r_C	Thalamus_l_C	Thalamus_r_C	Pallidum_l_C	Pallidum_r_C	Corp_Callosum_C	S_nigra_l_C	S_nigra_r_C	Insula_l_C	Insula_r_C	G_cing_ant_l_C	G_cing_ant_r_C	G_cing_post_l_C	G_cing_post_r_C	Cerebellum_r_C	Cerebellum_l_C	Brainstem_C	FrontalHorn_r_C	FrontalHorn_l_C	TemporaHorn_r_C	TemporaHorn_l_C	ThirdVentricl_C	White_matter_l_C	White_matter_r_C	CBW_C	
0.0	15.0	1.4921116268463783	1.5742301526643434	2.347283810476579	3.1826608657392543	0.39795866562287563	0.7793539394172535	0.5270096183909724	0.5611282019005096	1.0590031031346847	1.2368294641876785	2.4454134809708488	2.5394603072032544	0.6274568086811599	0.5418088243419712	0.6462993742219659	0.6919306869065547	0.556952303480496	0.7015102172937681	0.652909565475776	0.6764508888721467	1.262873010023644	0.6554766437586617	1.0950150579446927	1.1385501983553865	0.5603352878242731	0.4885856169109632	0.8536478514152188	1.221415617208705	0.5179741618727735	0.7837998870519702	0.5871787808081017	0.48347220114264333	0.4663895993901137	0.8333430744471058	0.7079534697358904	0.7538983886078	0.5533264152075968	0.5149456518754905	0.5734511161534952	0.6110901957456495	0.7990539730135664	0.9105592639241071	0.5978815631100944	0.6129976639862765	2.2197791898087846	3.123748070772479	1.9317225397022568	2.662755312006616	1.7023333445240116	1.5209805529704588	0.6892271768846345	0.8416553795132021	0.7149808330135542	0.6973889434354494	0.8160232979709783	1.1926792715550698	2.0050092803836743	1.6184134742899237	0.763843112037732	1.2015477309421616	0.8616582737635594	0.9195327087143992	1.540146462831643	1.6288989432631515	0.7463870653249685	0.7048402123405162	1.559832681681118	1.2064487302303315	0.39196048356592655	1.0322603381605449	1.035470985715622	1.9139510878176376	1.8214187935360422	1.921319777008904	2.685203142228328	0.5043464294747723	0.4159988808715344	0.5983667470416895	2.0862340026597184	1.4819705585802072	0.8929046159265218	0.7164353450312267	1.1357527156329195	1.4559764124785974	1.8023520215504616	0.4778506513827615	1.8250847842067794	1.9027294770927465	3.0053223552375155	4.139102218374762	0.3216258865527014	0.8406161176619318	0.47429695350209855	0.532640663346858	1.2149085091024456	1.3942552756294635	3.117883372595386	3.2141872631115875	0.5817931185849728	0.5171204402024033	0.6389450454175681	0.6931135095895321	0.5421439204321236	0.7248171417910556	0.5695598815059797	0.5767913305166142	1.709521038105359	0.7889809030475039	1.309706475822763	1.2993800345903788	0.5663567491990212	0.5069126448833691	0.8741955720371444	1.3120342600118138	0.5229238002316752	0.8877621012936656	0.6417245016508292	0.49049053968434086	0.34363209190227473	0.8169995270186894	0.6258730388126812	0.7305035393884907	0.5030674492445831	0.4523429510627315	0.5453994824593096	0.597524635844596	0.7981436992394827	0.9355181871835587	0.6574924757789262	0.6381673054365521	2.8636952128136715	4.147600356728769	2.416216785665378	3.495048412123563	2.0864316465979797	1.787037154513564	0.6462105352427016	0.7992878460939868	0.6694743135857187	0.6254276589495775	0.783669543522705	1.305432059611444	2.446447832936394	1.8095305116669547	0.757097011919205	1.2124274023333375	0.6156659734436405	0.7226725600979015	2.1049842585897376	1.5763895049993113	NaN	0.7900494337081909	1.6281589475919063	NaN	NaN	1.079902073419089	1.0637081916503326	2.3215400361445035	2.2088876293525677	2.2573614484903497	3.2970527255450373	0.4873070712087692	0.39199332917307883	0.10607239789524245	7.222224235534668	2.197808997705579	0.8522003516817177	0.4508888512616977	1.261839558266931	1.315831355331989	1.9111956337596787	-0.832584066523446
15.0	29.999	3.3021463343708213	3.386549079520313	4.410516100786086	4.596281947710998	6.580298895212873	5.060722415388034	2.6654638086259363	2.6717964796615497	3.3798717701258765	4.085068134902456	4.066086153726854	4.559244944062306	4.206699872201351	3.616898988310154	3.553962151538457	2.098698802273194	5.013189637616499	5.136701718048653	6.390955516760298	3.913480363368988	5.410824963920994	6.488360902842353	6.851712167263031	5.302560386269591	3.899317593333569	2.7920537100483975	2.8343300786435877	3.098873669010961	3.0856825477622287	3.2844273411081084	2.5854280307323116	1.9815074729137734	3.992733100780283	4.1211302591694725	3.8996324934160187	3.718154904162884	3.0341833892363037	1.9923546419852258	4.666639605784827	3.550536439636014	2.7160220263566046	3.0412370005535334	3.7474414567737018	4.711501606486061	4.012313572111531	4.841184455591558	3.2687919477085283	3.7389742206999226	2.9238050651629175	3.287890871220155	2.540593320836072	3.297008603570583	3.0974638209272145	4.520083453315747	2.6998561563436794	4.696989845522125	2.144360751307483	2.0489434793339294	3.930722034894503	5.620234868964371	4.46402403114684	3.583260600772022	4.0415625369858565	4.408169685882497	4.3172029632966495	4.002550396654341	2.4320878489308857	3.7859674382209776	2.077370630502701	3.9235415383033527	4.741466245361387	4.7938481279340595	4.0247877896274336	3.1531064823285972	5.052464970041411	3.9837685697527325	3.836641441975712	3.5821662422205267	1.8804496767992775	2.1720277985944283	2.6672030714926898	2.7550575129593473	3.221055174433945	2.9211495956009546	3.2165313788275993	3.0261760226539773	4.237913543377865	4.243174867450082	5.713885910455357	6.061289030210453	8.505009278933676	6.638397625299415	3.3177801847883015	3.2793637218948817	4.307199739110277	5.214565459024876	5.195590058772112	5.890815957911034	5.3821906951724445	4.585687187002383	4.642203284730745	2.521291449316436	6.206028188057875	6.247221053548031	8.258571599140641	4.805101031920424	7.114972974802996	7.547658721605937	8.58600666956468	6.446964144324645	4.2080767408962725	3.0091633090726386	3.0139470208647117	3.3525734455448335	3.6889456997603216	4.079838581153607	3.3206964009167517	2.3803867478728122	4.670012264402727	4.807418979335539	4.847312710273932	4.601621465789089	3.7153221056272008	2.2982083443472714	5.440835042342693	4.323565887823088	3.2061411006574674	3.5613905803615893	4.768790778239387	5.842062402821955	5.166058046483662	6.042311630471583	4.174993096323572	4.759496353566961	3.665824289718913	4.167970388028871	3.028962311237339	3.9197342750198754	3.648466913954865	5.508613999731053	3.259256160045811	5.8649304958655275	2.521428253716263	2.5599719493998294	4.077283668518066	5.801451507879763	5.079361138397639	4.195296945155571	4.947252801338659	5.497805784429823	NaN	1.308476448059082	3.939133868288638	NaN	NaN	4.6097189547876045	5.629244259515085	5.904424051328638	5.003409239281084	3.7921650077691162	6.185116676043882	4.5314690805661435	4.379989301958564	5.697657047065469	3.2130415439605713	2.024585910141468	3.4691944558855514	4.31889756321907	8.37736882103814	6.404925884218531	6.032792301978483	3.787342760297987
30.0	45.0	8.754380912793035	9.348253492171965	9.579838424897634	9.108457319660642	11.369084482815996	11.165923310187278	9.072704427639643	8.838690653056293	9.496527738886478	10.24388543546926	9.881079843840414	10.115418138023358	9.464208056950026	9.35650388079305	8.287334859765918	7.551408999683312	10.496934563811145	11.604778937451503	15.074358192279185	12.473236348152161	10.188930260507684	11.444071377024931	16.599795192480087	10.998870211978291	10.950244604907137	8.874801034728685	8.797286890618812	6.953800062847953	8.568708219674335	7.693452653834628	8.506377862374993	5.44019853795161	10.981430418956013	9.23814173955766	10.151862901963472	10.042944294166565	8.556296309828758	7.216470019387091	10.16677723393567	6.988261741021989	8.36731033583911	8.666946581283728	7.773599665538938	10.049906841624868	9.377513986889381	10.428138225031372	7.637036018749178	9.240007974123975	7.921899455675137	7.7400444170729275	8.207341459515277	9.80059445598614	9.78902772823762	12.408464393183637	8.706142502930525	13.819017561999233	6.937247890645362	8.496646516413884	13.984841779562144	10.080890782025396	12.220015699465556	11.327122136542508	10.864066031832508	11.832923840288515	9.184606265095832	10.138301989882464	5.123434076413867	8.130269975662232	10.984298725128173	11.191125493885247	11.301656288643406	11.826116412211082	9.798962181833781	9.18205451462176	11.833415290535125	11.306451064690503	11.19281257839272	9.326494676604863	4.070671856949727	3.846458767820438	10.71562475849081	8.857088197635699	10.718778664633732	7.378577458008074	7.746573144886105	9.653635681316416	11.344859821011113	12.053028532212563	12.297399705445065	11.568247885345542	14.5264429095049	14.730844932373124	11.607224230378923	11.289779749242744	12.41409041679146	13.095244255414304	12.626370253478338	12.906226455095023	12.103430719963617	12.017641345143835	10.802825272545334	9.555111593864531	13.111686837875236	14.163546232284805	19.83049559790241	16.01218252711826	13.591467960460767	13.79183240370317	20.688071289929475	13.000718880922367	11.85856025040645	9.802649906388035	9.396284870381626	7.478849203185698	10.269720508558452	9.544714369484513	11.250217948240392	6.656514224375268	13.067084186606937	10.815075416769526	12.692558761606564	12.847627695835952	10.75436461777127	8.94988122636022	11.92473557043235	8.287877834589747	10.400909378437563	10.462451406785457	9.830271762161429	12.553046806913908	12.408099488858046	13.845727458038406	9.833375779454023	11.963608050686181	10.07942573637239	9.878659753248597	10.23914367155697	11.947178619431341	11.94303676100929	15.285549989786555	10.952207240812829	17.483477072459767	9.230952687669491	11.45119126829658	14.563723901601938	10.28478800520605	13.814687620700719	13.346981660092725	15.910422201011807	15.190721336825863	NaN	13.173385620117188	10.628382122338708	NaN	NaN	13.407341125467791	13.414051758375205	15.092229894807382	12.137162785065005	11.430304500983175	14.510499169480218	12.962863767968368	12.90449896252392	12.968305955767002	12.33875036239624	4.676500727422535	14.806887754252259	13.217963767051696	20.205386267768013	14.174717958053845	12.931364254896032	10.79000120692783
45.0	60.0	12.985394657839526	14.7905350431041	13.012392294982577	14.368015802878272	13.731143006128283	15.331636644109377	11.71483960946401	12.315359667524115	13.790843341162477	14.915620376237339	13.445326290024253	14.53098705424554	13.691256944830332	13.257115974221179	14.041970222991035	11.541528740088554	14.251829077948384	14.199249916853848	15.319202786726917	14.46092714691162	9.800763607025146	10.825547176248888	18.15999974310398	13.262200022852698	14.140710816738453	14.248876798720588	14.910246726005308	12.91712178531875	12.126274463943671	10.576981352880225	13.158915922913371	9.749356759180788	13.857839503608192	13.04267038050152	14.798412407810314	12.859249223327637	12.728128694607452	10.403976545509943	12.700789611291064	9.96291966442491	11.454276123235552	12.9181488108205	11.326740959578869	12.89401032187722	13.067654068632184	14.6936250961358	11.189854110856201	13.060478095107472	10.730009833802415	11.056606239476645	11.56744865067932	13.891241361273542	15.497161312763124	16.741465424719753	14.31690109102992	18.2440839138898	9.233281822106562	12.933184353101405	12.089746416532076	13.84811849983371	17.642480223484213	16.669921886812133	15.945556706374969	17.08652038945185	12.903409001896682	14.514150543489318	6.984463471626597	13.244110612869262	15.063562965393066	15.075524309580118	14.856864688821036	15.772152322762425	15.09766691759841	14.02305348456164	16.13506724211144	15.267113820581521	15.991224049887606	12.79641113094383	6.444990644554297	5.780267709087661	13.367475982065555	12.59721474707881	14.290486166141177	10.425277599646673	10.801897329862093	12.786068459526652	17.178489067815097	19.236899474096	16.64336878876125	18.68991270608518	17.493889449375818	20.456405235059332	15.12099896754702	15.857250518146593	18.203924025938424	19.149995602344195	17.35197717009313	18.57647504250872	17.518595792884312	17.315629171602655	18.695210933685303	14.811355071333496	17.812815058029305	17.395528663534296	19.37466223968947	17.521186925746775	12.409095628841504	12.469620285612164	23.23680929704146	15.84405716871604	15.378692797346458	15.703078445093132	15.824150516177124	13.714768333772643	14.564220249277046	13.182272162000508	17.326957511901856	12.372260536201269	16.354464113110243	15.239553692317244	18.692622907767117	16.39776117390445	16.04926464334871	12.950211389595706	14.621762372378921	11.614039056571729	14.254072606299465	15.742853460668465	14.569787055593416	15.93344221105341	17.266498117152373	19.8795028286598	14.665069078194636	17.09539217313097	13.58598622429405	14.092690619421907	14.455605395556004	17.034838613820455	19.04113361524062	20.529451463070323	18.509188450020293	23.15874932623647	13.135947399640429	16.670300183858732	12.583703459226168	14.165912219456263	21.01034959612439	19.637787085696743	20.902701467857444	21.888555846698992	NaN	20.657024383544922	10.83155037040141	NaN	NaN	18.126665022224188	17.542543814282766	20.029039309167988	19.150674296715824	17.566370054233012	19.8677764006706	17.460801481608257	18.456691310261235	15.640798411805097	5.218810081481934	6.251743972301483	17.795331619155238	18.750542986392976	30.685988744099934	19.74725445602717	16.94896008732707	20.905320167541504
60.0	90.0	16.070332907587098	17.73646598694042	16.235898730237203	16.94721742140844	16.32697417268801	16.981700681940428	14.909331932067872	14.96024371238498	17.256006124124728	18.01608160959922	16.935141642870835	17.073918701746194	16.081184076175628	13.827767388367738	15.762373287946183	13.552463812202905	16.374865394030046	17.73882549768393	19.446370426699414	15.837527263641357	10.312485092564634	11.685508868273567	21.544767625629902	17.827307845270912	14.906863667863481	15.147910245827266	14.613733317994852	15.606216414361937	13.360807575784396	12.271155594837053	14.238476602337029	11.503007723073491	14.806515705852082	14.605923807810223	18.40169734563652	15.444403031158448	15.00750362331217	12.486664081344014	16.618993198741023	12.085891419733075	14.021747055385324	15.565386451124992	12.943246251461552	14.984500663930719	16.1860737776326	16.244554795014977	13.61213541721517	15.335487767022949	13.638859462984652	13.9288386639143	14.935755120780376	16.94610942020025	19.132291704494087	19.957976602659258	16.565824629074914	21.356978227795175	12.09785738530488	14.022170032533504	16.66977028479943	15.80184860618747	20.423832254298755	20.461088628159665	18.60271891244599	20.50817998305901	15.14179647316053	18.33594324508151	7.931255747094041	14.338521156311035	15.904903564453125	17.622209881542457	16.98070747623705	16.725168265779672	17.3198502382187	16.892224503802016	20.83673642752179	18.55378171479793	19.14718885453465	14.665235418200526	6.071843309005102	6.287908891867558	13.560319785718564	12.982953844191153	13.579142412083261	12.54525571279569	13.142181964459407	15.65151752684473	21.294875525422974	23.206047728235685	20.96573544631285	22.14469366063327	21.011721057574835	22.36082796135334	19.266022936749042	19.15962184599279	22.904166946331493	23.25499848894027	21.947848960722947	21.85541896923781	20.667757840974254	17.877786020179848	20.784673809081085	17.48955227133116	20.471079351538318	21.8343154099578	24.73722863788447	19.736223282637418	13.388895949801883	13.838919495091293	26.8052378394387	21.453516067602695	16.113007430554756	16.69024698528243	15.519395995814845	16.671994593291156	15.952565716314135	15.294616912444555	18.55464951290804	14.675288758853066	17.39243923212944	17.11450456943449	23.46246492118867	19.626814535043916	18.989758044540526	15.540863356319866	19.419081457482534	14.458893492263824	17.497825856479178	19.051712015244863	16.610058968050875	18.62069206550473	21.79112012551424	21.65218966640532	17.95552697094021	20.036932531678797	17.55422501022088	17.988686172701254	18.83084405298601	20.85513001456758	23.569236209720707	24.397066159958534	21.41921970339268	27.112839868656607	16.803511555298513	18.520555114979267	17.448812895554763	16.157203596465443	23.63396720634158	24.138152493592585	25.223027150698183	24.063539321605976	NaN	26.510725021362305	11.941474486197999	NaN	NaN	21.12007300183177	20.12070583292351	20.92443351004049	21.747882903697565	21.23011956529077	25.685147544105746	21.278623408090354	22.124216038729827	17.910234953271903	14.817002296447754	7.721344947814941	18.428609270445058	19.44411690235138	28.460684405432808	22.210375689388663	20.9447515398957	23.380997048483955
90.0	120.0	18.147552362770956	19.717838915230715	18.813637420903667	18.936730731979278	16.559286401499456	16.23964265560727	15.394125431378683	15.564251636142854	18.9281449456226	19.850684113412733	18.24185314142662	18.36084980563757	15.43497893476331	14.472495259349918	15.963328017304276	14.429521598668822	17.626903811497474	18.49486058434323	19.353353376868817	18.60430648803711	12.455020979831094	15.220271839815027	22.49296396970749	20.355086382045304	15.760366962311116	16.236341536045074	16.176627879867905	17.30636524542784	14.314867372004047	14.025898449662803	15.402510280850567	13.20032169310773	15.899416558658734	15.69078741527739	20.196162349938334	16.878466077041626	16.09724530211904	14.043043367915242	15.088725939976031	13.550838185028292	15.964118306471004	17.268084110748926	14.41663912043852	16.155266569310967	17.508579844956262	18.224338807800027	15.664275254800879	17.29289652717343	15.243237685243301	15.81609218382422	16.475432290857626	18.898004883501052	21.769961120254376	21.11142644604433	19.191105482456233	22.72432969234608	12.987847551200183	14.95596267406964	14.929305304013766	18.74309629323531	22.488132464469327	22.814526907312825	19.982983817798395	20.728212113980646	18.33723023331281	19.596042778180994	8.62341530784255	17.204390182495118	14.447011890411376	18.84835319625154	18.572505007704642	18.169254464170816	18.45181406959551	19.337510224028584	21.195009187405443	19.781401118214433	20.212558787621493	15.38010131629992	7.3594028774897255	6.946586001860468	16.496953496226556	13.823393725141694	13.879871349206708	14.049783686733996	14.359023998576529	16.680794330869137	24.05568736582184	25.666921949724227	24.45978397212309	24.673393840845772	21.01128527332211	21.464908243429782	19.758657353067306	19.90747304941061	25.17330046801743	25.6593476683086	23.62541295848377	23.627257055264263	19.46633232260026	18.665593851180304	20.869924401128014	18.304592584235227	22.037031650543213	22.655327299366828	24.473529760502586	23.116725709703232	16.103578052005254	18.063275423916902	27.834842924638227	24.64745634030073	17.08597898615364	17.757861252184266	17.155081982882518	18.445618199036186	17.20757545889702	17.58911561089672	20.004406704622156	16.955848313491167	18.555318597992663	18.260003214228664	25.54361253712565	21.540704663579582	20.29793792184889	17.57086862699949	17.355817625753854	16.130695292627742	20.03156425681546	21.151926471330857	18.52241957540664	19.9636115871492	23.42326824811283	24.432744964336354	20.788109751895252	22.693975481390954	19.681558336335648	20.468335966120147	20.820125472233933	23.313009632958305	26.914285325518485	25.832522577596894	24.92162936755936	28.830690476762044	18.637401758415113	19.50637023577189	15.542406287560096	19.113690162191585	26.531529550510356	25.871900080636955	27.72992407991157	24.1962842972724	NaN	47.57734298706055	12.618931256123442	NaN	NaN	22.52302711866796	21.972457405616495	22.701076168304322	23.25830129526325	24.45250210562363	26.236911896874787	22.621738723103732	23.277105905855212	18.629973542135083	14.255602836608887	11.856423169374466	21.659210836383657	20.852493906021117	28.526550716824	23.530686737446302	21.188855110212813	20.206349664264255
120.0	149.999	18.697841790590815	20.27846802966133	18.43391179261509	19.154307611893945	16.418425736115804	16.933117149645803	15.573667062123617	16.245750445050078	19.231286609808972	20.226272377328883	18.590508439726207	18.890552866181782	15.702266676806472	14.322633360876404	15.80732507579374	15.588860273974108	17.711679948799645	17.52018386115445	16.385067836843806	17.561878829956054	12.619449126093011	14.125964080586153	22.83897878229618	18.162184005559876	15.493326509252508	16.02867580453555	15.462349918031473	14.411230386831821	15.10769351088906	13.711068922351943	16.51573991413358	14.028622012841897	15.210892298731942	16.951951858732436	19.44367323973897	17.831968207550048	17.1650261095979	14.794389471970831	17.028647884703204	14.53953923305995	16.543499749055584	17.731048888763986	14.327920933330761	16.46620099587874	18.02824076399214	19.359107687095605	16.26058757965751	17.204290512372733	15.667371993301341	16.215920865018933	17.117937225933204	19.097934918340663	21.979786584022463	20.791880395265846	18.518954325419674	23.26916943615936	13.987227182906455	16.067464252453092	14.754509522364689	16.820896547667836	23.895212053789976	23.41069511826377	21.057371270626607	21.443154953993282	20.665780132256664	18.266940780307937	8.257174403859036	15.689796886444093	19.01421018600464	18.919041696443678	18.914099933676525	19.332368579433158	18.48788865625042	19.982972654945407	22.69786211250815	19.81772291455984	20.60955750218614	16.51599523693805	6.490385228097439	6.882642724196608	15.37591736404984	13.612917580182039	13.94595573412492	14.462277337784297	14.89491204843216	17.291543119619476	24.781176189945775	26.4516562607813	23.819822431676528	24.971412838631675	20.712984141880785	22.344151042928598	19.987991229708467	20.84016050076088	25.404031425693752	26.089478595549288	23.97485372458434	24.205245136671977	19.583365264885227	18.328751079963915	20.60596035432446	19.887358452917194	22.16703462196609	21.437533030663186	20.05936676214549	21.657938083012898	16.12898675815479	16.61774308753736	28.346461035988547	21.799700125669823	16.744273864661558	17.60281930882254	16.41223737428773	15.257043616961589	18.172408652936976	17.084204207153086	21.546755703757793	17.941538189171816	17.69095063370085	19.757398177294842	24.538360195598383	22.76422050423941	21.65042385065927	18.524773964743396	19.695959758599066	17.222842472173465	20.77241145455253	21.712676417417814	18.323951506668994	20.491535939154076	24.124521612001697	26.17667586488339	21.537994780089342	22.531469890779842	20.159753695993103	20.95583320972743	21.61799050525916	23.451792378715737	27.19383510863513	25.30048762821982	23.86358858028886	29.505606203105256	19.326394012008887	21.388939894790465	15.250356380756084	17.083525774430257	28.220992163939624	26.32809990918786	28.926618313323907	24.69201102073376	NaN	32.36393737792969	11.069822034951466	NaN	NaN	22.59785100966692	22.314780909439612	24.32249117831337	23.20966234918415	25.034645588527173	27.95880501068037	22.676633872462	23.78426178738615	20.30702927661487	17.090264797210693	6.802805811166763	20.486222549223562	20.085540091991426	28.6973967022366	24.18629017237867	21.980311568393265	21.140503141615127
150.0	180.0	18.96930181694767	20.025084332589135	18.340165510709305	18.622166405804826	16.951768888300986	16.795577190261394	15.643730165163676	15.643304082867386	19.493853369611045	19.95579803584026	19.322214197880808	19.156002176603028	16.201987689015144	15.586294756568034	17.224280941565304	15.69753117916823	16.70486550544625	17.605185293382213	17.428877432569326	18.888060470581056	13.89964717312863	16.617764276616715	24.53004442155361	20.601477722788967	16.678762844268313	17.814796314353035	16.74323993454331	16.024109449142063	14.671904157428546	14.278192633225512	16.00024455951739	14.564245036390961	15.565302018540354	16.60657193320138	20.094988014269752	17.608576789093018	17.501465235515074	15.081170019896135	15.42820077099151	13.359691694168978	16.363373071970127	17.62151120588369	14.24485671005997	17.02583845311945	17.965395993956918	18.3649625358015	16.381168027406076	17.825815001747028	15.535529840453112	16.44003090775771	17.28583430552617	18.981173150833417	21.325671233334056	21.44005899815112	19.113550527875994	22.266679889826662	12.297084606691604	15.959928052886081	13.54608535033006	20.54640921767877	24.964032522302706	24.141356955606593	20.161308303762663	22.44529504375858	17.66658672314246	17.4698977170935	8.669170529998484	14.29802568435669	17.837868003845216	19.14339539636657	18.965466483978375	19.742291294362996	18.508384049755254	20.739921079569566	22.533417071155757	20.20999496653965	20.76234783025001	16.325671537767278	6.453984379867713	7.021662146037577	14.77474386603744	14.76133132886283	16.69744446693651	14.489318720433946	15.032327359793802	17.233510133962984	25.19586997390706	26.125257865243746	23.780444948813493	24.1373656463783	21.392061263900715	22.152761702585703	20.051941317331398	20.081286908077445	25.74977333278563	25.648082438011595	25.08183459974549	24.548628375755758	20.445026083488685	20.25164863041469	22.575767177019934	20.241371529542807	20.74990709555351	21.48458449646746	21.85064393823797	23.288956068180227	17.882957690470928	19.80522401405103	30.213964167508212	24.83177957779322	18.14133223536272	19.570747725757553	17.74558242986787	17.079329026483858	17.516845155934817	17.83041040017448	20.99856058850008	18.921447119360305	18.017446466567943	19.29791263227809	25.534646908833672	22.399453665601207	22.151646531283895	19.06413929294254	17.645293703844715	15.950720924220674	20.468671571181705	21.56667743714855	18.40438474337984	21.141383931285045	24.028798042958332	24.586538972643513	21.69718573882994	23.402582737581955	20.024597712974195	21.40555672205799	21.817855260849534	23.252460819530107	26.29255110293292	26.14427034161615	24.72866235668875	28.118595983029714	17.08002200057541	21.032340203637307	13.92365006666917	20.96269027554259	29.81696498131437	27.92773201675096	27.892388372772945	26.598567962646484	NaN	23.97726058959961	12.710897609369079	NaN	NaN	22.89595053344965	22.34827228926151	24.785795239182118	23.316898446722128	26.24544625740333	27.862808324377458	23.114431464732927	23.92326725338943	19.793094889874617	6.582266569137573	9.379586087539792	18.191418500013754	22.782257866859435	32.312657303280304	23.612960842218293	23.158385661452314	26.32380911376741
